  t[s]	          x1[m]	        x2[m/s]	        x3[rad]	      x4[rad/s]	        F[N]
  0.00	+0.00000000e+00	+0.00000000e+00	+3.14000000e+00	+0.00000000e+00	+0.000000e+00
  0.01	-1.44754903e-06	-3.47405284e-02	+3.13999677e+00	-7.74167878e-02	-2.000000e+00
  0.02	-3.50277227e-04	-6.89253363e-02	+3.13921944e+00	-1.53438702e-01	-2.000000e+00
  0.03	-1.04093163e-03	-1.02549584e-01	+3.13768195e+00	-2.27887507e-01	-2.000000e+00
  0.04	-2.06780496e-03	-1.35608710e-01	+3.13540005e+00	-3.00588879e-01	-2.000000e+00
  0.05	-3.42524582e-03	-1.68098408e-01	+3.13239121e+00	-3.71372624e-01	-2.000000e+00
  0.06	-5.10755978e-03	-2.00014608e-01	+3.12867462e+00	-4.40072930e-01	-2.000000e+00
  0.07	-7.10901167e-03	-2.31353475e-01	+3.12427112e+00	-5.06528664e-01	-2.000000e+00
  0.08	-9.42382803e-03	-2.62111415e-01	+3.11920316e+00	-5.70583708e-01	-2.000000e+00
  0.09	-1.20461994e-02	-2.92285100e-01	+3.11349476e+00	-6.32087334e-01	-2.000000e+00
  0.10	-1.49702832e-02	-3.21871493e-01	+3.10717144e+00	-6.90894625e-01	-2.000000e+00
  0.11	-1.81902064e-02	-3.50867898e-01	+3.10026016e+00	-7.46866920e-01	-2.000000e+00
  0.12	-2.17000689e-02	-3.79272007e-01	+3.09278928e+00	-7.99872304e-01	-2.000000e+00
  0.13	-2.54939477e-02	-4.07081963e-01	+3.08478848e+00	-8.49786106e-01	-2.000000e+00
  0.14	-2.95659013e-02	-4.34296430e-01	+3.07628867e+00	-8.96491423e-01	-2.000000e+00
  0.15	-3.39099748e-02	-4.60914663e-01	+3.06732195e+00	-9.39879649e-01	-2.000000e+00
  0.16	-3.85202057e-02	-4.86936583e-01	+3.05792149e+00	-9.79851002e-01	-2.000000e+00
  0.17	-4.33906310e-02	-5.12362856e-01	+3.04812146e+00	-1.01631503e+00	-2.000000e+00
  0.18	-4.85152942e-02	-5.37194959e-01	+3.03795694e+00	-1.04919112e+00	-2.000000e+00
  0.19	-5.38882538e-02	-5.61435257e-01	+3.02746381e+00	-1.07840892e+00	-2.000000e+00
  0.20	-5.95035919e-02	-5.85087057e-01	+3.01667866e+00	-1.10390877e+00	-2.000000e+00
  0.21	-6.53554237e-02	-6.08154667e-01	+3.00563867e+00	-1.12564206e+00	-2.000000e+00
  0.22	-7.14379074e-02	-6.30643429e-01	+2.99438150e+00	-1.14357149e+00	-2.000000e+00
  0.23	-7.77452549e-02	-6.52559753e-01	+2.98294519e+00	-1.15767135e+00	-2.000000e+00
  0.24	-8.42717421e-02	-6.73911127e-01	+2.97136805e+00	-1.16792757e+00	-2.000000e+00
  0.25	-9.10117198e-02	-6.94706116e-01	+2.95968851e+00	-1.17433786e+00	-2.000000e+00
  0.26	-9.79596247e-02	-7.14954342e-01	+2.94794502e+00	-1.17691163e+00	-2.000000e+00
  0.27	-1.05109989e-01	-7.34666454e-01	+2.93617596e+00	-1.17566991e+00	-2.000000e+00
  0.28	-1.12457454e-01	-7.53854075e-01	+2.92441947e+00	-1.17064513e+00	-2.000000e+00
  0.29	-1.19996772e-01	-7.72529736e-01	+2.91271338e+00	-1.16188085e+00	-2.000000e+00
  0.30	-1.27722827e-01	-7.90706802e-01	+2.90109509e+00	-1.14943142e+00	-2.000000e+00
  0.31	-1.35630632e-01	-8.08399381e-01	+2.88960145e+00	-1.13336154e+00	-2.000000e+00
  0.32	-1.43715344e-01	-8.25622224e-01	+2.87826865e+00	-1.11374578e+00	-2.000000e+00
  0.33	-1.51972265e-01	-8.42390617e-01	+2.86713215e+00	-1.09066806e+00	-2.000000e+00
  0.34	-1.60396851e-01	-8.58720270e-01	+2.85622658e+00	-1.06422108e+00	-2.000000e+00
  0.35	-1.68984717e-01	-8.74627199e-01	+2.84558560e+00	-1.03450569e+00	-2.000000e+00
  0.36	-1.77731635e-01	-8.90127613e-01	+2.83524192e+00	-1.00163030e+00	-2.000000e+00
  0.37	-1.86633541e-01	-9.05237798e-01	+2.82522711e+00	-9.65710191e-01	-2.000000e+00
  0.38	-1.95686533e-01	-9.19974006e-01	+2.81557163e+00	-9.26866952e-01	-2.000000e+00
  0.39	-2.04886872e-01	-9.34352354e-01	+2.80630469e+00	-8.85227796e-01	-2.000000e+00
  0.40	-2.14230980e-01	-9.48388724e-01	+2.79745426e+00	-8.40924969e-01	-2.000000e+00
  0.41	-2.23715439e-01	-9.62098681e-01	+2.78904696e+00	-7.94095164e-01	-2.000000e+00
  0.42	-2.33336984e-01	-9.75497394e-01	+2.78110806e+00	-7.44878957e-01	-2.000000e+00
  0.43	-2.43092504e-01	-9.88599574e-01	+2.77366141e+00	-6.93420285e-01	-2.000000e+00
  0.44	-2.52979034e-01	-1.00141942e+00	+2.76672944e+00	-6.39865960e-01	-2.000000e+00
  0.45	-2.62993751e-01	-1.01397059e+00	+2.76033310e+00	-5.84365217e-01	-2.000000e+00
  0.46	-2.73133969e-01	-1.02626616e+00	+2.75449183e+00	-5.27069312e-01	-2.000000e+00
  0.47	-2.83397133e-01	-1.03831863e+00	+2.74922359e+00	-4.68131156e-01	-2.000000e+00
  0.48	-2.93780812e-01	-1.05013989e+00	+2.74454480e+00	-4.07704987e-01	-2.000000e+00
  0.49	-3.04282694e-01	-1.06174128e+00	+2.74047032e+00	-3.45946091e-01	-2.000000e+00
  0.50	-3.14900582e-01	-1.07313359e+00	+2.73701348e+00	-2.83010549e-01	-2.000000e+00
  0.51	-3.25632384e-01	-1.08432706e+00	+2.73418604e+00	-2.19055027e-01	-2.000000e+00
  0.52	-3.36476113e-01	-1.09533147e+00	+2.73199819e+00	-1.54236593e-01	-2.000000e+00
  0.53	-3.47429879e-01	-1.10615618e+00	+2.73045856e+00	-8.87125680e-02	-2.000000e+00
  0.54	-3.58491884e-01	-1.11681015e+00	+2.72957418e+00	-2.26403904e-02	-2.000000e+00
  0.55	-3.69660423e-01	-1.12730206e+00	+2.72935055e+00	+4.38224879e-02	-2.000000e+00
  0.56	-3.80933874e-01	-1.13764031e+00	+2.72979155e+00	+1.10518696e-01	-2.000000e+00
  0.57	-3.92310702e-01	-1.14783315e+00	+2.73089952e+00	+1.77291027e-01	-2.000000e+00
  0.58	-4.03789453e-01	-1.15788868e+00	+2.73267521e+00	+2.43982511e-01	-2.000000e+00
  0.59	-4.15368753e-01	-1.16781499e+00	+2.73511781e+00	+3.10436486e-01	-2.000000e+00
  0.60	-4.27047312e-01	-1.17762017e+00	+2.73822492e+00	+3.76496680e-01	-2.000000e+00
  0.61	-4.38823917e-01	-1.18731240e+00	+2.74199262e+00	+4.42007284e-01	-2.000000e+00
  0.62	-4.50697441e-01	-1.19690000e+00	+2.74641539e+00	+5.06813052e-01	-2.000000e+00
  0.63	-4.62664014e-01	-1.13866501e+00	+2.75149202e+00	+7.10681779e-01	+2.000000e+00
  0.64	-4.74048274e-01	-1.08129867e+00	+2.75860721e+00	+9.11580382e-01	+2.000000e+00
  0.65	-4.84858906e-01	-1.02478100e+00	+2.76773125e+00	+1.10922487e+00	+2.000000e+00
  0.66	-4.95104396e-01	-9.69098252e-01	+2.77883158e+00	+1.30331108e+00	+2.000000e+00
  0.67	-5.04793092e-01	-9.14243817e-01	+2.79187262e+00	+1.49351165e+00	+2.000000e+00
  0.68	-5.13933280e-01	-8.60218982e-01	+2.80681548e+00	+1.67947336e+00	+2.000000e+00
  0.69	-5.22533253e-01	-8.07033536e-01	+2.82361777e+00	+1.86081525e+00	+2.000000e+00
  0.70	-5.30601408e-01	-7.54706188e-01	+2.84223327e+00	+2.03712732e+00	+2.000000e+00
  0.71	-5.38146327e-01	-7.03264778e-01	+2.86261166e+00	+2.20797015e+00	+2.000000e+00
  0.72	-5.45176869e-01	-6.52746240e-01	+2.88469824e+00	+2.37287551e+00	+2.000000e+00
  0.73	-5.51702267e-01	-6.03196277e-01	+2.90843360e+00	+2.53134804e+00	+2.000000e+00
  0.74	-5.57732208e-01	-5.54668729e-01	+2.93375339e+00	+2.68286839e+00	+2.000000e+00
  0.75	-5.63276918e-01	-5.07224592e-01	+2.96058807e+00	+2.82689765e+00	+2.000000e+00
  0.76	-5.68347235e-01	-4.60930677e-01	+2.98886272e+00	+2.96288341e+00	+2.000000e+00
  0.77	-5.72954664e-01	-4.15857906e-01	+3.01849686e+00	+3.09026733e+00	+2.000000e+00
  0.78	-5.77111419e-01	-3.72079250e-01	+3.04940446e+00	+3.20849421e+00	+2.000000e+00
  0.79	-5.80830444e-01	-3.29667365e-01	+3.08149392e+00	+3.31702248e+00	+2.000000e+00
  0.80	-5.84125410e-01	-2.88691984e-01	+3.11466825e+00	+3.41533565e+00	+2.000000e+00
  0.81	-5.87010685e-01	-2.49217151e-01	+3.14882525e+00	+3.50295448e+00	+2.000000e+00
  0.82	-5.89501277e-01	-2.11298429e-01	+3.18385799e+00	+3.57944930e+00	+2.000000e+00
  0.83	-5.91612748e-01	-1.74980213e-01	+3.21965519e+00	+3.64445190e+00	+2.000000e+00
  0.84	-5.93361105e-01	-1.40293297e-01	+3.25610193e+00	+3.69766623e+00	+2.000000e+00
  0.85	-5.94762661e-01	-1.07252836e-01	+3.29308031e+00	+3.73887749e+00	+2.000000e+00
  0.86	-5.95833881e-01	-7.58568449e-02	+3.33047029e+00	+3.76795883e+00	+2.000000e+00
  0.87	-5.96591209e-01	-4.60853250e-02	+3.36815059e+00	+3.78487530e+00	+2.000000e+00
  0.88	-5.97050888e-01	-1.79000880e-02	+3.40599954e+00	+3.78968484e+00	+2.000000e+00
  0.89	-5.97228778e-01	+8.75470693e-03	+3.44389609e+00	+3.78253616e+00	+2.000000e+00
  0.90	-5.97140181e-01	+3.39513364e-02	+3.48172067e+00	+3.76366368e+00	+2.000000e+00
  0.91	-5.96799675e-01	+5.77766932e-02	+3.51935604e+00	+3.73337997e+00	+2.000000e+00
  0.92	-5.96220968e-01	+8.03299781e-02	+3.55668812e+00	+3.69206610e+00	+2.000000e+00
  0.93	-5.95416777e-01	+1.01720041e-01	+3.59360662e+00	+3.64016053e+00	+2.000000e+00
  0.94	-5.94398729e-01	+1.22062525e-01	+3.63000564e+00	+3.57814736e+00	+2.000000e+00
  0.95	-5.93177295e-01	+1.41476957e-01	+3.66578413e+00	+3.50654424e+00	+2.000000e+00
  0.96	-5.91761750e-01	+1.60083920e-01	+3.70084622e+00	+3.42589089e+00	+2.000000e+00
  0.97	-5.90160164e-01	+1.78002431e-01	+3.73510141e+00	+3.33673843e+00	+2.000000e+00
  0.98	-5.88379417e-01	+1.95347586e-01	+3.76846475e+00	+3.23963993e+00	+2.000000e+00
  0.99	-5.86425238e-01	+2.12228549e-01	+3.80085679e+00	+3.13514240e+00	+2.000000e+00
  1.00	-5.84302264e-01	+2.28746916e-01	+3.83220358e+00	+3.02378030e+00	+2.000000e+00
  1.01	-5.82014118e-01	+2.44995436e-01	+3.86243648e+00	+2.90607059e+00	+2.000000e+00
  1.02	-5.79563494e-01	+2.61057103e-01	+3.89149204e+00	+2.78250908e+00	+2.000000e+00
  1.03	-5.76952258e-01	+2.77004577e-01	+3.91931175e+00	+2.65356820e+00	+2.000000e+00
  1.04	-5.74181550e-01	+2.92899903e-01	+3.94584186e+00	+2.51969570e+00	+2.000000e+00
  1.05	-5.71251889e-01	+3.08794484e-01	+3.97103305e+00	+2.38131435e+00	+2.000000e+00
  1.06	-5.68163280e-01	+3.24729266e-01	+3.99484026e+00	+2.23882232e+00	+2.000000e+00
  1.07	-5.64915321e-01	+3.40735099e-01	+4.01722239e+00	+2.09259406e+00	+2.000000e+00
  1.08	-5.61507299e-01	+3.56833232e-01	+4.03814209e+00	+1.94298163e+00	+2.000000e+00
  1.09	-5.57938292e-01	+3.73035903e-01	+4.05756555e+00	+1.79031617e+00	+2.000000e+00
  1.10	-5.54207253e-01	+3.89347010e-01	+4.07546224e+00	+1.63490966e+00	+2.000000e+00
  1.11	-5.50313099e-01	+4.05762824e-01	+4.09180475e+00	+1.47705655e+00	+2.000000e+00
  1.12	-5.46254783e-01	+4.22272725e-01	+4.10656865e+00	+1.31703555e+00	+2.000000e+00
  1.13	-5.42031364e-01	+4.38859955e-01	+4.11973226e+00	+1.15511127e+00	+2.000000e+00
  1.14	-5.37642071e-01	+4.55502372e-01	+4.13127656e+00	+9.91535799e-01	+2.000000e+00
  1.15	-5.33086353e-01	+4.72173184e-01	+4.14118504e+00	+8.26550223e-01	+2.000000e+00
  1.16	-5.28363927e-01	+4.88841674e-01	+4.14944362e+00	+6.60386006e-01	+2.000000e+00
  1.17	-5.23474817e-01	+5.05473906e-01	+4.15604052e+00	+4.93266292e-01	+2.000000e+00
  1.18	-5.18421952e-01	+4.60503608e-01	+4.16096316e+00	+2.52673535e-01	-2.000000e+00
  1.19	-5.13818755e-01	+4.16347207e-01	+4.16347992e+00	+1.33529740e-02	-2.000000e+00
  1.20	-5.09657094e-01	+3.72890599e-01	+4.16360353e+00	-2.24764764e-01	-2.000000e+00
  1.21	-5.05929974e-01	+3.30022683e-01	+4.16134601e+00	-4.61738895e-01	-2.000000e+00
  1.22	-5.02631514e-01	+2.87635971e-01	+4.15671879e+00	-6.97616747e-01	-2.000000e+00
  1.23	-4.99756904e-01	+2.45627222e-01	+4.14973284e+00	-9.32431963e-01	-2.000000e+00
  1.24	-4.97302371e-01	+2.03898097e-01	+4.14039878e+00	-1.16620254e+00	-2.000000e+00
  1.25	-4.95265121e-01	+1.62355892e-01	+4.12872705e+00	-1.39892860e+00	-2.000000e+00
  1.26	-4.93643288e-01	+1.20914355e-01	+4.11472812e+00	-1.63058976e+00	-2.000000e+00
  1.27	-4.92435871e-01	+7.94946335e-02	+4.09841261e+00	-1.86114211e+00	-2.000000e+00
  1.28	-4.91642652e-01	+3.80263511e-02	+4.07979163e+00	-2.09051454e+00	-2.000000e+00
  1.29	-4.91264121e-01	-3.55113975e-03	+4.05887698e+00	-2.31860446e+00	-2.000000e+00
  1.30	-4.91301372e-01	-4.52873319e-02	+4.03568150e+00	-2.54527275e+00	-2.000000e+00
  1.31	-4.91755992e-01	-8.72189428e-02	+4.01021939e+00	-2.77033790e+00	-2.000000e+00
  1.32	-4.92629938e-01	-1.29368098e-01	+3.98250671e+00	-2.99356923e+00	-2.000000e+00
  1.33	-4.93925384e-01	-1.71740324e-01	+3.95256180e+00	-3.21467921e+00	-2.000000e+00
  1.34	-4.95644562e-01	-2.14322377e-01	+3.92040590e+00	-3.43331495e+00	-2.000000e+00
  1.35	-4.97789567e-01	-2.57079950e-01	+3.88606376e+00	-3.64904891e+00	-2.000000e+00
  1.36	-5.00362153e-01	-2.99955320e-01	+3.84956443e+00	-3.86136911e+00	-2.000000e+00
  1.37	-5.03363494e-01	-3.42865063e-01	+3.81094206e+00	-4.06966927e+00	-2.000000e+00
  1.38	-5.06793929e-01	-3.85697967e-01	+3.77023688e+00	-4.27323947e+00	-2.000000e+00
  1.39	-5.10652685e-01	-4.28313356e-01	+3.72749624e+00	-4.47125803e+00	-2.000000e+00
  1.40	-5.14937578e-01	-4.70540071e-01	+3.68277568e+00	-4.66278601e+00	-2.000000e+00
  1.41	-5.19644713e-01	-5.12176422e-01	+3.63614015e+00	-4.84676529e+00	-2.000000e+00
  1.42	-5.24768178e-01	-5.52991447e-01	+3.58766519e+00	-5.02202213e+00	-2.000000e+00
  1.43	-5.30299748e-01	-5.92727849e-01	+3.53743809e+00	-5.18727775e+00	-2.000000e+00
  1.44	-5.36228626e-01	-6.31106925e-01	+3.48555890e+00	-5.34116740e+00	-2.000000e+00
  1.45	-5.42541226e-01	-6.67835757e-01	+3.43214134e+00	-5.48226944e+00	-2.000000e+00
  1.46	-5.49221033e-01	-7.02616710e-01	+3.37731336e+00	-5.60914469e+00	-2.000000e+00
  1.47	-5.56248556e-01	-7.35159110e-01	+3.32121728e+00	-5.72038561e+00	-2.000000e+00
  1.48	-5.63601398e-01	-7.65192599e-01	+3.26400949e+00	-5.81467338e+00	-2.000000e+00
  1.49	-5.71254462e-01	-7.92481382e-01	+3.20585958e+00	-5.89083928e+00	-2.000000e+00
  1.50	-5.79180290e-01	-8.16838238e-01	+3.14694881e+00	-5.94792552e+00	-2.000000e+00
  1.51	-5.87349560e-01	-8.38136977e-01	+3.08746800e+00	-5.98523947e+00	-2.000000e+00
  1.52	-5.95731688e-01	-8.56322007e-01	+3.02761489e+00	-6.00239557e+00	-2.000000e+00
  1.53	-6.04295537e-01	-8.71413866e-01	+2.96759106e+00	-5.99933940e+00	-2.000000e+00
  1.54	-6.13010180e-01	-8.83509992e-01	+2.90759862e+00	-5.97635114e+00	-2.000000e+00
  1.55	-6.21845666e-01	-8.92780562e-01	+2.84783687e+00	-5.93402741e+00	-2.000000e+00
  1.56	-6.30773750e-01	-8.99459849e-01	+2.78849913e+00	-5.87324387e+00	-2.000000e+00
  1.57	-6.39768531e-01	-9.03834079e-01	+2.72976995e+00	-5.79510305e+00	-2.000000e+00
  1.58	-6.48806972e-01	-9.06227071e-01	+2.67182284e+00	-5.70087324e+00	-2.000000e+00
  1.59	-6.57869274e-01	-9.06985118e-01	+2.61481865e+00	-5.59192497e+00	-2.000000e+00
  1.60	-6.66939104e-01	-9.06462385e-01	+2.55890449e+00	-5.46967070e+00	-2.000000e+00
  1.61	-6.76003667e-01	-9.05007866e-01	+2.50421338e+00	-5.33551210e+00	-2.000000e+00
  1.62	-6.85053660e-01	-9.02954565e-01	+2.45086428e+00	-5.19079758e+00	-2.000000e+00
  1.63	-6.94083108e-01	-9.00611199e-01	+2.39896273e+00	-5.03679116e+00	-2.000000e+00
  1.64	-7.03089122e-01	-8.98256427e-01	+2.34860157e+00	-4.87465220e+00	-2.000000e+00
  1.65	-7.12071598e-01	-8.96135378e-01	+2.29986210e+00	-4.70542492e+00	-2.000000e+00
  1.66	-7.21032882e-01	-8.94458128e-01	+2.25281516e+00	-4.53003569e+00	-2.000000e+00
  1.67	-7.29977419e-01	-8.93399726e-01	+2.20752233e+00	-4.34929643e+00	-2.000000e+00
  1.68	-7.38911403e-01	-8.93101357e-01	+2.16403709e+00	-4.16391203e+00	-2.000000e+00
  1.69	-7.47842441e-01	-8.93672308e-01	+2.12240586e+00	-3.97449033e+00	-2.000000e+00
  1.70	-7.56779227e-01	-8.95192417e-01	+2.08266900e+00	-3.78155340e+00	-2.000000e+00
  1.71	-7.65731256e-01	-8.97714795e-01	+2.04486163e+00	-3.58554906e+00	-2.000000e+00
  1.72	-7.74708552e-01	-9.01268624e-01	+2.00901442e+00	-3.38686204e+00	-2.000000e+00
  1.73	-7.83721430e-01	-9.05861934e-01	+1.97515417e+00	-3.18582427e+00	-2.000000e+00
  1.74	-7.92780284e-01	-9.11484255e-01	+1.94330439e+00	-2.98272412e+00	-2.000000e+00
  1.75	-8.01895402e-01	-9.18109111e-01	+1.91348569e+00	-2.77781446e+00	-2.000000e+00
  1.76	-8.11076809e-01	-9.25696320e-01	+1.88571615e+00	-2.57131943e+00	-2.000000e+00
  1.77	-8.20334126e-01	-9.34194093e-01	+1.86001162e+00	-2.36344018e+00	-2.000000e+00
  1.78	-8.29676457e-01	-9.43540929e-01	+1.83638593e+00	-2.15435944e+00	-2.000000e+00
  1.79	-8.39112288e-01	-9.53667310e-01	+1.81485109e+00	-1.94424524e+00	-2.000000e+00
  1.80	-8.48649412e-01	-9.64497217e-01	+1.79541743e+00	-1.73325380e+00	-2.000000e+00
  1.81	-8.58294862e-01	-9.75949456e-01	+1.77809371e+00	-1.52153176e+00	-2.000000e+00
  1.82	-8.68054856e-01	-9.87938839e-01	+1.76288724e+00	-1.30921784e+00	-2.000000e+00
  1.83	-8.77934762e-01	-1.00037720e+00	+1.74980393e+00	-1.09644407e+00	-2.000000e+00
  1.84	-8.87939068e-01	-1.01317429e+00	+1.73884836e+00	-8.83336749e-01	-2.000000e+00
  1.85	-8.98071355e-01	-1.02623854e+00	+1.73002389e+00	-6.70017086e-01	-2.000000e+00
  1.86	-9.08334292e-01	-1.03947773e+00	+1.72333261e+00	-4.56601712e-01	-2.000000e+00
  1.87	-9.18729624e-01	-1.05279956e+00	+1.71877548e+00	-2.43203087e-01	-2.000000e+00
  1.88	-9.29258174e-01	-1.06611214e+00	+1.71635234e+00	-2.99298444e-02	-2.000000e+00
  1.89	-9.39919846e-01	-1.07932444e+00	+1.71606191e+00	+1.83112866e-01	-2.000000e+00
  1.90	-9.50713633e-01	-1.09234666e+00	+1.71790191e+00	+3.95823023e-01	-2.000000e+00
  1.91	-9.61637631e-01	-1.10509059e+00	+1.72186898e+00	+6.08101328e-01	-2.000000e+00
  1.92	-9.72686590e-01	-1.05835825e+00	+1.72795965e+00	+8.39768253e-01	+2.000000e+00
  1.93	-9.83268238e-01	-1.01192498e+00	+1.73636698e+00	+1.07130797e+00	+2.000000e+00
  1.94	-9.93385560e-01	-9.65677500e-01	+1.74708971e+00	+1.30289852e+00	+2.000000e+00
  1.95	-1.00304041e+00	-9.19504556e-01	+1.76012835e+00	+1.53470649e+00	+2.000000e+00
  1.96	-1.01223353e+00	-8.73296946e-01	+1.77548509e+00	+1.76688657e+00	+2.000000e+00
  1.97	-1.02096457e+00	-8.26947659e-01	+1.79316365e+00	+1.99958076e+00	+2.000000e+00
  1.98	-1.02923211e+00	-7.80352202e-01	+1.81316918e+00	+2.23291731e+00	+2.000000e+00
  1.99	-1.03703367e+00	-7.33409128e-01	+1.83550811e+00	+2.46700911e+00	+2.000000e+00
  2.00	-1.04436579e+00	-6.86020798e-01	+1.86018799e+00	+2.70195159e+00	+2.000000e+00
  2.01	-1.05122400e+00	-6.38094422e-01	+1.88721733e+00	+2.93781981e+00	+2.000000e+00
  2.02	-1.05760292e+00	-5.89543409e-01	+1.91660540e+00	+3.17466465e+00	+2.000000e+00
  2.03	-1.06349630e+00	-5.40289079e-01	+1.94836196e+00	+3.41250781e+00	+2.000000e+00
  2.04	-1.06889711e+00	-4.90262794e-01	+1.98249698e+00	+3.65133534e+00	+2.000000e+00
  2.05	-1.07379762e+00	-4.39408555e-01	+2.01902033e+00	+3.89108938e+00	+2.000000e+00
  2.06	-1.07818955e+00	-3.87686128e-01	+2.05794124e+00	+4.13165776e+00	+2.000000e+00
  2.07	-1.08206422e+00	-3.35074755e-01	+2.09926787e+00	+4.37286110e+00	+2.000000e+00
  2.08	-1.08541274e+00	-2.81577498e-01	+2.14300655e+00	+4.61443703e+00	+2.000000e+00
  2.09	-1.08822625e+00	-2.27226234e-01	+2.18916099e+00	+4.85602120e+00	+2.000000e+00
  2.10	-1.09049621e+00	-1.72087300e-01	+2.23773124e+00	+5.09712502e+00	+2.000000e+00
  2.11	-1.09221476e+00	-1.16267713e-01	+2.28871249e+00	+5.33711014e+00	+2.000000e+00
  2.12	-1.09337509e+00	-5.99217853e-02	+2.34209351e+00	+5.57516018e+00	+2.000000e+00
  2.13	-1.09397194e+00	-3.25784681e-03	+2.39785491e+00	+5.81025084e+00	+2.000000e+00
  2.14	-1.09400216e+00	+5.34554314e-02	+2.45596704e+00	+6.04112036e+00	+2.000000e+00
  2.15	-1.09346525e+00	+1.09883825e-01	+2.51638762e+00	+6.26624329e+00	+2.000000e+00
  2.16	-1.09236409e+00	+1.65624456e-01	+2.57905912e+00	+6.48381204e+00	+2.000000e+00
  2.17	-1.09070557e+00	+2.20206063e-01	+2.64390591e+00	+6.69173170e+00	+2.000000e+00
  2.18	-1.08850131e+00	+2.73094102e-01	+2.71083139e+00	+6.88763516e+00	+2.000000e+00
  2.19	-1.08576826e+00	+3.23702188e-01	+2.77971529e+00	+7.06892529e+00	+2.000000e+00
  2.20	-1.08252925e+00	+3.71411091e-01	+2.85041138e+00	+7.23285058e+00	+2.000000e+00
  2.21	-1.07881330e+00	+4.15595854e-01	+2.92274587e+00	+7.37661715e+00	+2.000000e+00
  2.22	-1.07465567e+00	+4.55660391e-01	+2.99651708e+00	+7.49753495e+00	+2.000000e+00
  2.23	-1.07009759e+00	+4.91077374e-01	+3.07149642e+00	+7.59318874e+00	+2.000000e+00
  2.24	-1.06518555e+00	+5.21429484e-01	+3.14743116e+00	+7.66161645e+00	+2.000000e+00
  2.25	-1.05997021e+00	+5.46446794e-01	+3.22404899e+00	+7.70147117e+00	+2.000000e+00
  2.26	-1.05450493e+00	+5.66034559e-01	+3.30106415e+00	+7.71214120e+00	+2.000000e+00
  2.27	-1.04884399e+00	+5.80286626e-01	+3.37818479e+00	+7.69380638e+00	+2.000000e+00
  2.28	-1.04304074e+00	+5.89481819e-01	+3.45512093e+00	+7.64741953e+00	+2.000000e+00
  2.29	-1.03714573e+00	+5.94063683e-01	+3.53159209e+00	+7.57461534e+00	+2.000000e+00
  2.30	-1.03120507e+00	+5.94606896e-01	+3.60733420e+00	+7.47756252e+00	+2.000000e+00
  2.31	-1.02525912e+00	+5.91775709e-01	+3.68210488e+00	+7.35878415e+00	+2.000000e+00
  2.32	-1.01934159e+00	+5.86280383e-01	+3.75568698e+00	+7.22097315e+00	+2.000000e+00
  2.33	-1.01347910e+00	+5.78836907e-01	+3.82789029e+00	+7.06682597e+00	+2.000000e+00
